Wavelength,Absorbance
800,0.05
780,0.06
760,0.07
740,0.08
720,0.10
700,0.12
680,0.15
660,0.20
640,0.28
620,0.40
600,0.55
580,0.72
560,0.90
540,1.05
520,1.15
500,1.20
480,1.18
460,1.10
440,0.95
420,0.75
400,0.55
380,0.35
360,0.20
340,0.12
320,0.08
300,0.05
